time,open,high,low,close,tick_volume,real_volume,buffer0,buffer1,buffer2,buffer3,buffer4,buffer5,buffer6,buffer7,buffer8,buffer9
1785715200,2300.0,2300.27,2299.74,2300.0,100,20,EMPTY,EMPTY,EMPTY,EMPTY,EMPTY,EMPTY,EMPTY,EMPTY,EMPTY,EMPTY
1785715260,2300.0,2302.06697,2299.67,2301.73697,101,21,EMPTY,EMPTY,EMPTY,EMPTY,EMPTY,EMPTY,EMPTY,EMPTY,0.00050189359262731159,EMPTY
1785715320,2301.73697,2303.70152,2301.33697,2303.31152,102,22,EMPTY,EMPTY,EMPTY,EMPTY,EMPTY,EMPTY,EMPTY,EMPTY,0.0007060718729441362,EMPTY
1785715380,2303.31152,2305.03901,2303.05152,2304.58901,103,23,EMPTY,EMPTY,EMPTY,EMPTY,EMPTY,EMPTY,EMPTY,EMPTY,0.00062651340494657148,EMPTY
1785715440,2304.58901,2305.7553,2304.25901,2305.4853,104,24,EMPTY,EMPTY,EMPTY,EMPTY,EMPTY,EMPTY,EMPTY,EMPTY,0.00040787293952515569,EMPTY
1785715500,2305.4853,2306.3103,2305.0853,2305.9803,105,25,EMPTY,EMPTY,EMPTY,EMPTY,EMPTY,EMPTY,EMPTY,EMPTY,0.00027127982322294741,EMPTY
1785715560,2305.9803,2306.51,2305.7203,2306.12,106,26,EMPTY,EMPTY,EMPTY,EMPTY,EMPTY,EMPTY,EMPTY,EMPTY,0.00014085274419617377,EMPTY
1785715620,2306.12,2306.57,2305.67651,2306.00651,107,27,EMPTY,EMPTY,EMPTY,EMPTY,EMPTY,EMPTY,EMPTY,EMPTY,-1.4061254449693195e-05,EMPTY
1785715680,2306.00651,2306.27651,2305.37791,2305.77791,108,28,EMPTY,EMPTY,EMPTY,EMPTY,EMPTY,EMPTY,EMPTY,EMPTY,-0.00011863380529408829,EMPTY
1785715740,2305.77791,2306.10791,2305.32184,2305.58184,109,29,EMPTY,EMPTY,EMPTY,EMPTY,EMPTY,EMPTY,EMPTY,EMPTY,-6.0824996301001022e-05,EMPTY
1785715800,2305.58184,2305.97184,2305.21733,2305.54733,110,30,EMPTY,EMPTY,EMPTY,EMPTY,EMPTY,EMPTY,EMPTY,EMPTY,-3.9770855772225389e-05,EMPTY
1785715860,2305.54733,2306.21024,2305.14733,2305.76024,111,31,EMPTY,EMPTY,EMPTY,EMPTY,EMPTY,EMPTY,EMPTY,EMPTY,5.5127080501371495e-05,EMPTY
1785715920,2305.76024,2306.51675,2305.50024,2306.24675,112,32,EMPTY,EMPTY,EMPTY,EMPTY,EMPTY,EMPTY,EMPTY,EMPTY,0.00016565209979635398,EMPTY
1785715980,2306.24675,2307.29786,2305.91675,2306.96786,113,20,EMPTY,EMPTY,EMPTY,EMPTY,EMPTY,EMPTY,EMPTY,EMPTY,0.00027730425557592753,EMPTY
1785716040,2306.96786,2308.21589,2306.56786,2307.82589,114,21,EMPTY,EMPTY,EMPTY,EMPTY,EMPTY,EMPTY,EMPTY,EMPTY,0.00035067636725116813,EMPTY
1785716100,2307.82589,2309.132,2307.56589,2308.682,115,22,EMPTY,EMPTY,EMPTY,EMPTY,EMPTY,EMPTY,EMPTY,EMPTY,0.000400094184207056,EMPTY
1785716160,2308.682,2309.65126,2308.352,2309.38126,116,23,EMPTY,EMPTY,EMPTY,EMPTY,EMPTY,EMPTY,EMPTY,EMPTY,0.000289419491251941,EMPTY
1785716220,2309.38126,2310.11088,2308.98126,2309.78088,117,24,EMPTY,EMPTY,EMPTY,EMPTY,EMPTY,EMPTY,EMPTY,EMPTY,0.0002148487788184994,EMPTY
1785716280,2309.78088,2310.17088,2309.51653,2309.77653,118,25,EMPTY,EMPTY,EMPTY,EMPTY,EMPTY,EMPTY,EMPTY,EMPTY,8.5280073945703805e-05,EMPTY
1785716340,2309.77653,2310.22653,2308.99168,2309.32168,119,26,EMPTY,EMPTY,EMPTY,EMPTY,EMPTY,EMPTY,EMPTY,EMPTY,-0.00013335975551864721,EMPTY
1785716400,2309.32168,2309.59168,2308.03677,2308.43677,120,27,EMPTY,EMPTY,EMPTY,EMPTY,EMPTY,109.5,120,EMPTY,-0.00035723429237677351,EMPTY
1785716460,2308.43677,2308.76677,2306.94625,2307.20625,121,28,EMPTY,EMPTY,EMPTY,EMPTY,EMPTY,110.5,121,EMPTY,-0.00045432212829510377,EMPTY
1785716520,2307.20625,2307.59625,2305.43422,2305.76422,122,29,EMPTY,EMPTY,EMPTY,EMPTY,EMPTY,111.5,122,EMPTY,-0.00059596378512072334,EMPTY
1785716580,2305.76422,2306.21422,2303.87113,2304.27113,123,30,EMPTY,EMPTY,EMPTY,EMPTY,EMPTY,112.5,123,EMPTY,-0.00064167738756637505,EMPTY
1785716640,2304.27113,2304.54113,2302.62589,2302.88589,124,31,EMPTY,EMPTY,EMPTY,EMPTY,EMPTY,113.5,124,EMPTY,-0.00062260455656470981,EMPTY
1785716700,2302.88589,2303.21589,2301.40829,2301.73829,125,32,EMPTY,EMPTY,EMPTY,EMPTY,EMPTY,114.5,125,EMPTY,-0.00053421093478522863,EMPTY
1785716760,2301.73829,2302.12829,2300.507,2300.907,126,20,EMPTY,EMPTY,EMPTY,EMPTY,EMPTY,115.5,126,EMPTY,-0.00040842860080747556,EMPTY
1785716820,2300.907,2301.357,2300.14681,2300.40681,127,21,EMPTY,EMPTY,EMPTY,EMPTY,EMPTY,116.5,127,EMPTY,-0.00023638051112584435,EMPTY
1785716880,2300.40681,2300.67681,2299.85763,2300.18763,128,22,EMPTY,EMPTY,EMPTY,EMPTY,EMPTY,117.5,128,EMPTY,-0.00017222076825973431,EMPTY
1785716940,2300.18763,2300.51763,2299.74545,2300.14545,129,23,EMPTY,EMPTY,EMPTY,EMPTY,EMPTY,118.5,129,EMPTY,-4.5436857188718704e-05,EMPTY
1785717000,2300.14545,2300.53545,2299.88298,2300.14298,130,24,EMPTY,EMPTY,EMPTY,0,0.16790234217585764,119.5,130,EMPTY,2.2154964567810964e-05,0.00036498240247625309
1785717060,2300.14298,2300.59298,2299.70653,2300.03653,131,25,EMPTY,EMPTY,EMPTY,0,0.16239532747179919,120.5,131,EMPTY,-3.2660194865918868e-05,0.00035302771358983415
1785717120,2300.03653,2300.30653,2299.3039,2299.7039,132,26,EMPTY,EMPTY,EMPTY,-132,0.15049832557898277,121.5,132,EMPTY,-0.00014807766493696306,0.00032721239803737943
1785717180,2299.7039,2300.0339,2298.80845,2299.06845,133,27,EMPTY,EMPTY,EMPTY,-133,0.1396081443631875,122.5,133,EMPTY,-0.00020345105506613947,0.00030361893827734332
1785717240,2299.06845,2299.45845,2297.78475,2298.11475,134,28,EMPTY,EMPTY,EMPTY,-134,0.13544141664863313,123.5,134,EMPTY,-0.0003701588181046489,0.00029467940329923282
1785717300,2298.11475,2298.56475,2296.49301,2296.89301,135,29,EMPTY,EMPTY,EMPTY,-135,0.135429043889226,124.5,135,EMPTY,-0.00049424875275505542,0.00029480921248749417
1785717360,2296.89301,2297.16301,2295.25152,2295.51152,136,30,EMPTY,EMPTY,EMPTY,-136,0.13857643500603656,125.5,136,EMPTY,-0.00058414457066913172,0.00030184216850725402
1785717420,2295.51152,2295.84152,2293.78834,2294.11834,100,31,EMPTY,EMPTY,EMPTY,-100,0.14303082853423046,126.5,100,EMPTY,-0.0006067308959423201,0.00031173376290220161
1785717480,2294.11834,2294.50834,2292.47565,2292.87565,101,32,EMPTY,EMPTY,EMPTY,-101,0.14657908876862899,125.65000000000001,101,EMPTY,-0.0005650495347824247,0.00031964029267925843
1785717540,2292.87565,2293.32565,2291.6714,2291.9314,102,20,EMPTY,EMPTY,EMPTY,-102,0.1474908055412045,124.8,102,EMPTY,-0.00042614453681899533,0.0003217609513557092
1785717600,2291.9314,2292.2014,2291.06338,2291.39338,103,21,EMPTY,EMPTY,EMPTY,-103,0.14726874509930257,123.95,103,EMPTY,-0.00033018590290812,0.00032135194765052207
1785717660,2291.39338,2291.72338,2290.91039,2291.31039,104,22,EMPTY,EMPTY,EMPTY,-104,0.1458838328338235,123.09999999999999,104,EMPTY,-0.00010386510337934141,0.00031834149024616325
1785717720,2291.31039,2292.05404,2291.05039,2291.66404,105,23,EMPTY,EMPTY,EMPTY,105,0.14513103383303114,122.25,105,EMPTY,0.00011991086339069312,0.00031664989130132518
1785717780,2291.66404,2292.82252,2291.33404,2292.37252,106,24,EMPTY,EMPTY,EMPTY,106,0.14468583183983558,121.40000000000001,106,EMPTY,0.00025606456455751214,0.00031558097686460568
1785717840,2292.37252,2293.57582,2291.97252,2293.30582,107,25,EMPTY,EMPTY,EMPTY,107,0.14440482896596285,120.55,107,EMPTY,0.00033806110401624068,0.00031483988682757288
1785717900,2293.30582,2294.63941,2293.04582,2294.30941,108,26,EMPTY,EMPTY,EMPTY,108,0.14620578823928393,119.7,108,EMPTY,0.00045643696841235482,0.00031862700732959107
1785717960,2294.30941,2295.62226,2293.97941,2295.23226,109,27,EMPTY,EMPTY,EMPTY,109,0.14952816384543877,118.84999999999999,109,EMPTY,0.000412482806162906,0.0003257364547617476
1785718020,2295.23226,2296.40403,2294.83226,2295.95403,110,28,EMPTY,EMPTY,EMPTY,110,0.15243098977881064,118,110,EMPTY,0.00034219951696545792,0.00033195566589547666
1785718080,2295.95403,2296.67645,2295.69403,2296.40645,111,29,EMPTY,EMPTY,EMPTY,111,0.15482788789254273,117.15000000000001,111,EMPTY,0.00023034462527693478,0.00033710906858962783
1785718140,2296.40645,2296.91501,2296.07645,2296.58501,112,30,-2.6827171109200343,-2.6827171109200343,0,112,0.15690468969458415,116.3,112,-2.6827171109200343,0.00011605740942854936,0.00034160435823489104
1785718200,2296.58501,2296.97501,2296.14896,2296.54896,113,31,-2.7024686011260286,-2.6893009409886992,-0.013167660137329396,0,0.15707149352518529,115.45,113,-2.7024686011260286,1.4000762625698826e-05,0.00034197288248795984
1785718260,2296.54896,2296.99896,2296.14938,2296.40938,114,32,-2.7225130890052358,-2.7003716569942116,-0.022141432011024254,0,0.15573976449874832,114.59999999999999,114,-2.7225130890052358,-1.6722268888713643e-05,0.00033909407846685488
1785718320,2296.40938,2296.67938,2295.97785,2296.30785,115,20,-2.5934065934065935,-2.6647166357983392,0.071310042391745654,-115,0.15133176008240659,113.75,115,-2.5934065934065935,-8.60237354851634e-05,0.00032951104548635882
1785718380,2296.30785,2296.71924,2295.90785,2296.38924,116,21,-1.4348981399468554,-2.2547771371811782,0.81987899723432278,0,0.14568504206018509,112.90000000000001,116,-1.4348981399468554,7.4394061755356233e-06,0.00031720459128302018
1785718440,2296.38924,2297.16388,2296.12924,2296.77388,117,22,0.79428826416778231,-1.2384220033981914,2.0327102675659736,117,0.14093240506598015,112.05,117,0.79428826416778231,0.00015250216242623793,0.00030680513718220304
1785718500,2296.77388,2297.98413,2296.44388,2297.53413,118,23,3.0755395683453237,0.19956518718298011,2.8759743811623437,118,0.13908634759758307,111.2,118,3.0755395683453237,0.00027501610868618798,0.00030268614028724583
1785718560,2297.53413,2298.94944,2297.13413,2298.67944,119,24,5.4100589034888991,1.9363964259516198,3.4736624775372791,119,0.14140370912616032,110.34999999999999,119,5.4100589034888991,0.00040631404602109455,0.000307575964411463
1785718620,2298.67944,2300.48299,2298.41944,2300.15299,120,25,7.4611872146118721,3.7779933555050373,3.6831938591068347,120,0.15066322030011889,109.5,120,7.4611872146118721,0.00062236720895469944,0.00032750695487459479
1785718680,2300.15299,2302.23021,2299.82299,2301.84021,121,26,9.4027149321266972,5.6529005477122576,3.7498143844144396,121,0.161199973432573,110.5,121,9.4027149321266972,0.00070100820595708768,0.0003501545692274031
1785718740,2301.84021,2304.03783,2301.44021,2303.58783,122,27,11.327354260089686,7.5443851185047341,3.7829691415849522,122,0.17221452453020306,111.5,122,11.327354260089686,0.00074892861651409959,0.00037379630654283118
1785718800,2303.58783,2305.5,2303.32783,2305.23,123,28,13.235555555555555,9.4414419308550084,3.7941136247005467,123,0.18128007980686953,112.5,123,13.235555555555555,0.00072226225060934013,0.00039319304322533874
1785718860,2305.23,2306.94671,2304.9,2306.61671,124,29,15.127753303964758,11.336879055224925,3.7908742487398328,124,0.18721118518484958,113.5,124,15.127753303964758,0.00063699018701601773,0.00040581338107285625
1785718920,2306.61671,2308.02932,2306.21671,2307.63932,125,30,15.170305676855895,12.614687929101915,2.5556177477539794,125,0.18911332698767569,114.5,125,15.170305676855895,0.00049448610386804148,0.00040975495032663002
1785718980,2307.63932,2308.69868,2307.37932,2308.24868,126,31,15.212121212121213,13.480499023441682,1.7316221886795304,126,0.18825162751621266,115.5,126,15.212121212121213,0.00035263507737859356,0.00040778021265068509
1785719040,2308.24868,2308.73248,2307.91868,2308.46248,127,32,15.253218884120171,14.071405643667845,1.1818132404523265,127,0.1833904688321823,116.5,127,15.253218884120171,0.00011364502574284785,0.00039721344925688868
1785719100,2308.46248,2308.79248,2307.96052,2308.36052,128,20,14.204255319148936,14.11568886882821,0.088566450320726631,0,0.17557815872354884,117.5,128,14.204255319148936,-1.7328235735192266e-08,0.00038030922206975886
1785719160,2308.36052,2308.75052,2307.80881,2308.06881,129,21,13.164556962025317,13.798644899893914,-0.63408793786859619,0,0.16492443779935884,118.5,129,13.164556962025317,-7.0092282168587872e-05,0.00035727799163699715
1785719220,2308.06881,2308.51881,2307.40537,2307.73537,130,22,11.04602510460251,12.881104968130114,-1.8350798635276035,-130,0.15326815133182034,119.5,130,11.04602510460251,-0.00013988588672653179,0.00033207479792585654
1785719280,2307.73537,2308.00537,2307.10219,2307.50219,131,23,8.9460580912863072,11.569422675848847,-2.6233645845625393,-131,0.14216640210140372,120.5,131,8.9460580912863072,-0.0001516365136726705,0.00030805258325974482
1785719340,2307.50219,2307.83219,2307.21846,2307.47846,132,24,7.9506172839506171,10.363154211882771,-2.4125369279321536,0,0.13291627057794447,121.5,132,7.9506172839506171,-1.1648853914358881e-05,0.00028801194221753313
1785719400,2307.47846,2308.10995,2307.14846,2307.71995,133,25,8.9714285714285715,9.8992456650647043,-0.92781709363613274,133,0.12511269204821257,122.5,133,8.9714285714285715,6.4894696151007736e-05,0.00027107425242004033
1785719460,2307.71995,2308.66826,2307.31995,2308.21826,134,26,9.9838056680161937,9.9274323327152008,0.056373335300992977,134,0.12188181884178249,123.5,134,9.9838056680161937,0.00017738045939186264,0.00026401710131558896
1785719520,2308.21826,2309.17198,2307.95826,2308.90198,135,27,11.911646586345382,10.588837083925261,1.322809502420121,135,0.12146906296137754,124.5,135,11.911646586345382,0.00026364166733028327,0.00026304508379644927
1785719580,2308.90198,2309.97954,2308.57198,2309.64954,136,28,12.900398406374501,11.359357524741675,1.541040881632826,136,0.12162848122530089,125.5,136,12.900398406374501,0.00031309419639224956,0.00026330505801607651
1785719640,2309.64954,2310.70133,2309.24954,2310.31133,100,29,12.664031620553359,11.794248890012238,0.86978273054112165,100,0.12149957758633403,126.5,100,12.664031620553359,0.00029745578229434244,0.00026295065952503904
1785719700,2310.31133,2311.18718,2310.05133,2310.73718,101,30,12.614405093513728,12.067634291179402,0.54677080233432562,101,0.12020171181270067,125.65000000000001,101,12.614405093513728,0.00024721693889873109,0.00026009386280074625
1785719760,2310.73718,2311.07411,2310.40718,2310.80411,102,31,11.746794871794872,11.960687818051227,-0.21389294625635458,0,0.12034673488975377,124.8,102,11.746794871794872,4.4677462151199165e-05,0.00026040012298955483
1785719820,2310.80411,2311.13411,2310.03931,2310.43931,103,32,10.028237192416297,11.316537609506252,-1.288300417089955,-103,0.12287425259039658,123.95,103,10.028237192416297,-9.7039085864558672e-05,0.00026591101540424485
1785719880,2310.43931,2310.82931,2309.3742,2309.6342,104,20,8.2696994313566208,10.300924883456375,-2.0312254520997541,-104,0.12885492261340872,123.09999999999999,104,8.2696994313566208,-0.00025610884191173966,0.00027895093217230834
1785719940,2309.6342,2310.0842,2308.11698,2308.44698,105,21,6.4703476482617583,9.0240658050581715,-2.5537181567964131,-105,0.13978792190406567,122.25,105,6.4703476482617583,-0.00046036925758219382,0.00030277481595887822
1785720000,2308.44698,2308.71698,2306.59307,2306.99307,106,22,4.6293245469522235,7.5591520523561888,-2.9298275054039653,-106,0.15440222362009376,121.40000000000001,106,4.6293245469522235,-0.00062749013332741299,0.00033463954796382147
1785720060,2306.99307,2307.32307,2305.16549,2305.42549,107,23,2.7457486520116134,5.9546842522413312,-3.2089356002297178,-107,0.16716707782923262,120.55,107,2.7457486520116134,-0.00063424873948481064,0.00036255146512939921
1785720120,2305.42549,2305.81549,2303.57829,2303.90829,108,24,0.81871345029239762,4.2426939849250207,-3.4239805346326229,-108,0.17902352077051012,119.7,108,0.81871345029239762,-0.00066689438309897042,0.00038852136942158866
1785720180,2303.90829,2304.35829,2302.18828,2302.58828,109,25,-1.1527135044173329,2.4442248218109031,-3.5969383262282362,-109,0.18843865935377457,118.84999999999999,109,-1.1527135044173329,-0.00060296460752518044,0.00040918878331512782
1785720240,2302.58828,2302.85828,2301.3099,2301.5699,110,26,-3.1694915254237288,0.57298603939935933,-3.7424775648230879,-110,0.19444372414605904,118,110,-3.1694915254237288,-0.00049175552835922787,0.00042241542206921252
1785720300,2301.5699,2301.8999,2300.56786,2300.89786,111,27,-4.1399914639351261,-0.99800646171213581,-3.1419850022229903,-111,0.19661420323535589,117.15000000000001,111,-4.1399914639351261,-0.00034360811170408567,0.00042725539158734293
1785720360,2300.89786,2301.28786,2300.15085,2300.55085,112,28,-5.1332760103181432,-2.3764296445808051,-2.7568463657373381,-112,0.19530924920110265,116.3,112,-5.1332760103181432,-0.00019935162646955717,0.00042448366051353012
1785720420,2300.55085,2301.00085,2300.1871,2300.4471,113,29,-4.0450411433521003,-2.9326334775045702,-1.1124076658475301,0,0.1888200563488549,115.45,113,-4.0450411433521003,-5.1364769775297248e-05,0.00041039860544686053
1785720480,2300.4471,2300.73116,2300.1171,2300.46116,114,30,-2.9319371727748691,-2.9324013759280034,0.00046420315313433491,0,0.17944799256381669,114.59999999999999,114,-2.9319371727748691,-4.7182686384594774e-05,0.00039002612972569527
1785720540,2300.46116,2300.79116,2300.04851,2300.44851,115,31,-2.953846153846154,-2.9395496352340538,-0.01429651861210024,0,0.16726668164961309,113.75,115,-2.953846153846154,-3.0776815522770562e-06,0.00036355232669305228
1785720600,2300.44851,2300.83851,2300.01361,2300.27361,116,32,-4.1541186891054025,-3.3444059865245035,-0.809712702580899,0,0.15418027660064113,112.90000000000001,116,-4.1541186891054025,-2.3539360732627301e-05,0.00033513464644025783
1785720660,2300.27361,2300.72361,2299.50638,2299.83638,117,20,-6.4257028112449799,-4.3715049280979965,-2.0541978831469834,-117,0.14221283307479154,112.05,117,-6.4257028112449799,-0.00015351717364797679,0.00030918032759093831
1785720720,2299.83638,2300.10638,2298.69199,2299.09199,118,21,-8.75,-5.8310032853986646,-2.9189967146013354,-118,0.13424575163450067,111.2,118,-8.75,-0.00031541047136496303,0.00029195385008170264
1785720780,2299.09199,2299.42199,2297.80061,2298.06061,119,22,-11.128228364295424,-7.5967449783642511,-3.5314833859311729,-119,0.12969211956261453,110.34999999999999,119,-11.128228364295424,-0.00037803483263854076,0.00028217732595532918
1785720840,2298.06061,2298.45061,2296.49522,2296.82522,120,23,-13.223744292237443,-9.4724114163219824,-3.7513328759154607,-120,0.13121630742983451,109.5,120,-13.223744292237443,-0.00050948665461714171,0.00028564713215277758
1785720900,2296.82522,2297.27522,2295.11777,2295.51777,121,24,-15.113122171945701,-11.352648334863222,-3.7604738370824791,-121,0.13440096990520381,110.5,121,-15.113122171945701,-0.00056028726268309015,0.00029274652468755185
1785720960,2295.51777,2295.78777,2294.03637,2294.29637,122,25,-16.071748878923767,-12.92568184955007,-3.1460670293736968,-122,0.13737426490568369,111.5,122,-16.071748878923767,-0.00055042716958553228,0.00029938212582728289
1785721020,2294.29637,2294.62637,2292.98751,2293.31751,123,26,-16.106666666666666,-13.98601012192227,-2.1206565447443957,-123,0.13896868125458797,112.5,123,-16.106666666666666,-0.00046336477046793334,0.00030298613394921483
1785721080,2293.31751,2293.70751,2292.30843,2292.70843,124,27,-16.140969162995596,-14.704329802280046,-1.4366393607155494,-124,0.13916240237345559,113.5,124,-16.140969162995596,-0.00032079581893906806,0.00030348909733248457
1785721140,2292.70843,2293.15843,2292.28461,2292.54461,125,28,-16.174672489082969,-15.194444031214356,-0.98022845786861268,-125,0.13840919675581032,114.5,125,-16.174672489082969,-0.00010710698888427572,0.0003018680555921883
1785721200,2292.54461,2293.10653,2292.21461,2292.83653,126,29,-15.116883116883116,-15.168590393103944,0.051707276220827936,0,0.13789555654701505,115.5,126,-15.116883116883116,2.4719134038342361e-05,0.00030070952451855567
1785721260,2292.83653,2293.85803,2292.43653,2293.52803,127,30,-12.978540772532188,-14.438573852913361,1.460033080381173,127,0.13932765143424999,116.5,127,-12.978540772532188,0.00024202971317954791,0.00030374089527532392
1785721320,2293.52803,2294.89664,2293.26803,2294.50664,128,31,-10.859574468085107,-13.245574057970611,2.385999589885504,128,0.14349578424810117,117.5,128,-10.859574468085107,0.00041398311401774635,0.00031269420132970537
1785721380,2294.50664,2296.07395,2294.17664,2295.62395,129,32,-8.7594936708860764,-11.750213928942433,2.9907202580563563,129,0.14793880207755467,118.5,129,-8.7594936708860764,0.00046529678481466163,0.0003222191554447641
1785721440,2295.62395,2296.99232,2295.22395,2296.72232,130,20,-6.6778242677824267,-10.059417375222431,3.3815931074400041,130,0.15197046446421147,119.5,130,-6.6778242677824267,0.00044487718586339042,0.00033084205073648497
1785721500,2296.72232,2297.99308,2296.46232,2297.66308,131,21,-4.614107883817427,-8.2443142114207646,3.6302063276033376,131,0.15739576682229656,120.5,131,-4.614107883817427,0.00046148710367965862,0.00034251272127830109
1785721560,2297.66308,2298.74111,2297.33308,2298.35111,132,22,-2.5679012345679011,-6.3521765524698104,3.7842753179019093,132,0.16226013697055713,121.5,132,-2.5679012345679011,0.0003346480536867702,0.0003529924915835795
1785721620,2298.35111,2299.20126,2297.95111,2298.75126,133,23,-1.4612244897959183,-4.7218591982451805,3.2606347084492624,133,0.16544906426347866,122.5,133,-1.4612244897959183,0.00021440097813041348,0.00035986726172252027
1785721680,2298.75126,2299.16375,2298.49126,2298.89375,134,24,-0.36437246963562753,-3.2693636220419964,2.9049911524063687,134,0.16672110229938775,123.5,134,-0.36437246963562753,9.3548265708065514e-05,0.00036261158720229616
1785721740,2298.89375,2299.22375,2298.53747,2298.86747,135,25,-0.36144578313253012,-2.3000576757388416,1.9386118926063114,0,0.16528185502327294,124.5,135,-0.36144578313253012,1.1589787819232811e-05,0.00035948539265569956
1785721800,2298.86747,2299.25747,2298.40242,2298.80242,136,26,-0.35856573705179284,-1.6528936961764922,1.2943279591246992,0,0.16028666674426312,125.5,136,-0.35856573705179284,-2.4125121774076774e-05,0.00034863080304279285
1785721860,2298.80242,2299.29465,2298.54242,2298.84465,100,27,0.56916996047430835,-0.91220581062622541,1.4813757711005338,0,0.15469763390445765,126.5,100,0.56916996047430835,3.18143563990958e-05,0.00033646822090491771
1785721920,2298.84465,2299.39806,2298.51465,2299.12806,101,28,1.5121368881814563,-0.10409157769033162,1.6162284658717878,0,0.14744065517421515,125.65000000000001,101,1.5121368881814563,5.2059913535629221e-05,0.00032064472123013267
1785721980,2299.12806,2300.07836,2298.72806,2299.74836,102,29,3.2932692307692308,1.0283620251295225,2.2649072056397084,102,0.14240070411355965,124.8,102,3.2932692307692308,0.00021949179367997118,0.00030960062107308049
1785722040,2299.74836,2301.13396,2299.48836,2300.74396,103,30,5.1149657119806369,2.3905632540798938,2.7244024579007431,103,0.14219262846900732,123.95,103,5.1149657119806369,0.0004074661045780914,0.00030901445563070675
1785722100,2300.74396,2302.53714,2300.41396,2302.08714,104,31,6.9780666125101547,3.9197310402233141,3.0583355722868406,104,0.14658789962842439,123.09999999999999,104,6.9780666125101547,0.00053192126614298729,0.00031838043200316121
1785722160,2302.08714,2303.95736,2301.68714,2303.68736,105,32,8.8834355828220861,5.5742992210895714,3.3091363617325147,105,0.15400681986598103,122.25,105,8.8834355828220861,0.00062161649169301114,0.0003342615463801065
1785722220,2303.68736,2305.73589,2303.42736,2305.40589,106,20,10.831960461285007,7.3268529678213836,3.5051074934636235,106,0.16505259240302284,121.40000000000001,106,10.831960461285007,0.00075771379592115551,0.00035796861871256616
1785722280,2305.40589,2307.4693,2305.07589,2307.0793,107,21,12.824554126918292,9.1594200208536876,3.6651341060646043,107,0.17385170223482968,120.55,107,12.824554126918292,0.00073084855687710615,0.0003767787744331755
1785722340,2307.0793,2308.99747,2306.6793,2308.54747,108,22,14.862155388471178,11.060331810059518,3.8018235784116605,108,0.18015803505873806,119.7,108,14.862155388471178,0.00066451898730957026,0.00039019781356009554
1785722400,2308.54747,2309.95102,2308.28747,2309.68102,109,23,15.88557004627682,12.668744555465285,3.2168254908115355,109,0.18319260308910101,118.84999999999999,109,15.88557004627682,0.00053353042739789913,0.00039657554766826851
1785722460,2309.68102,2310.7333,2309.35102,2310.4033,110,24,15.85593220338983,13.731140438106801,2.1247917652830299,110,0.18265142239984972,118,110,15.85593220338983,0.00037062124172049238,0.00039528038762723746
1785722520,2310.4033,2311.09279,2310.0033,2310.70279,111,25,15.825864276568501,14.429381717594035,1.3964825589744656,111,0.17833340046196078,117.15000000000001,111,15.825864276568501,0.00018918379791266204,0.00038588563019383552
1785722580,2310.70279,2311.15279,2310.37382,2310.63382,112,26,14.832330180567498,14.563697871918524,0.26863230864897325,0,0.17250469070853205,116.3,112,14.832330180567498,5.2156817832660352e-05,0.00037328435430874986
1785722640,2310.63382,2310.90382,2309.97543,2310.30543,113,27,12.836725855348636,13.988040533061897,-1.1513146777132608,-113,0.16455318317164885,115.45,113,12.836725855348636,-0.00014076689195441361,0.00035612863354532486
1785722700,2310.30543,2310.63543,2309.46037,2309.86037,114,28,10.794066317626527,12.923382461250107,-2.1293161436235799,-114,0.15487709911907951,114.59999999999999,114,10.794066317626527,-0.00017725958007552833,0.00033525208088461099
1785722760,2309.86037,2310.25037,2309.18821,2309.44821,115,29,8.7032967032967026,11.516687208598974,-2.8133905053022712,-115,0.14426767189214071,113.75,115,8.7032967032967026,-0.00015432457171282721,0.00031234229732335215
1785722820,2309.44821,2309.89821,2308.86729,2309.19729,116,30,6.5633303808680248,9.8655682660219917,-3.3022378851539669,-116,0.13553186521996333,112.90000000000001,116,6.5633303808680248,-0.00013336364749250151,0.00029346099141655264
1785722880,2309.19729,2309.46729,2308.79079,2309.19079,117,31,4.3730477465417223,8.0347280928619025,-3.6616803463201801,-117,0.12986757552914158,112.05,117,4.3730477465417223,-7.4183288500506706e-05,0.00028119715376385501
1785722940,2309.19079,2309.78118,2308.93079,2309.45118,118,32,5.4676258992805753,7.1790273616681279,-1.7114014623875526,118,0.12708066176088387,111.2,118,5.4676258992805753,0.00010310334896779239,0.000275131734460141
1785723000,2309.45118,2310.32593,2309.12118,2309.93593,119,20,6.5881286814680564,6.9820611349347717,-0.39393245346671524,119,0.12587803668401165,110.34999999999999,119,6.5881286814680564,0.0001760614738604005,0.00027247084009817459
1785723060,2309.93593,2310.99523,2309.53593,2310.54523,120,21,7.7351598173515983,7.2330940290737145,0.50206578827788384,120,0.12591069291857626,109.5,120,7.7351598173515983,0.00024434255112204539,0.00027246965626069185
1785723120,2310.54523,2311.41041,2310.28523,2311.14041,121,22,8.760180995475114,7.7421230178741816,1.0180579776009324,121,0.12513300558258431,110.5,121,8.760180995475114,0.00025384753648260983,0.00027071701278111505
1785723180,2311.14041,2311.8995,2310.81041,2311.5695,122,23,8.8609865470852025,8.1150775276111879,0.74590901947401456,122,0.1236994723207774,111.5,122,8.8609865470852025,0.00020817018642027563,0.00026756598129707408
1785723240,2311.5695,2312.08554,2311.1695,2311.69554,123,24,8.9600000000000009,8.3967183517407928,0.56328164825920801,123,0.1228383815129607,112.5,123,8.9600000000000009,9.6785474176463993e-05,0.00026568892699633075
1785723300,2311.69554,2312.14554,2311.16227,2311.42227,124,25,7.964757709251101,8.2527314709108968,-0.28797376165979571,0,0.12279037970299378,113.5,124,7.964757709251101,-3.1795973594483939e-05,0.00026561650222179821
1785723360,2311.42227,2311.69227,2310.38259,2310.71259,125,26,5.8864628820960698,7.4639752746392887,-1.5775123925432188,-125,0.12860254235860774,114.5,125,5.8864628820960698,-0.00028016982974854443,0.00027827463899049372
1785723420,2310.71259,2311.04259,2309.19641,2309.59641,126,27,3.8268398268398269,6.2515967920394679,-2.424756965199641,-126,0.13810586977373404,115.5,126,3.8268398268398269,-0.00042589920744973142,0.00029898269060293101
1785723480,2309.59641,2309.98641,2307.90648,2308.16648,127,28,1.7854077253218885,4.7628671031336083,-2.9774593778117198,-127,0.14995190746011108,116.5,127,1.7854077253218885,-0.00054504456816850677,0.00032482905535503463
1785723540,2308.16648,2308.61648,2306.23289,2306.56289,128,29,-0.23829787234042554,3.0958121113089305,-3.334109983649356,-128,0.16406549726495709,117.5,128,-0.23829787234042554,-0.00067118536851040744,0.00035564930394106246
1785723600,2306.56289,2306.83289,2304.54905,2304.94905,129,30,-2.2447257383966246,1.3156328280737459,-3.5603585664703705,-129,0.17827072345034264,118.5,129,-2.2447257383966246,-0.00073440735770002874,0.00038671293721295627
1785723660,2304.94905,2305.27905,2303.22357,2303.48357,130,31,-4.2343096234309625,-0.53434798909448999,-3.6999616343364723,-130,0.18793495395949594,119.5,130,-4.2343096234309625,-0.00062839173941675597,0.00040793638905680573
1785723720,2303.48357,2303.87357,2301.96309,2302.29309,131,32,-6.2074688796680499,-2.425388285952343,-3.7820805937157069,-131,0.19497354449688797,120.5,131,-6.2074688796680499,-0.00055809084624680594,0.00042343337028581348
1785723780,2302.29309,2302.74309,2301.05091,2301.45091,132,20,-7.2427983539094649,-4.03119164193805,-3.2116067119714149,-132,0.19815424973834886,121.5,132,-7.2427983539094649,-0.00041768794562546674,0.0004304985365478615
1785723840,2301.45091,2301.72091,2300.70549,2300.96549,133,21,-7.3469387755102042,-5.1364406864621017,-2.2104980890481025,-133,0.19694114752291755,122.5,133,-7.3469387755102042,-0.00026838565427755867,0.00042795328391239269
1785723900,2300.96549,2301.29549,2300.45071,2300.78071,134,22,-7.4493927125506074,-5.9074246951582712,-1.5419680173923362,-134,0.19204820536216721,123.5,134,-7.4493927125506074,-0.00012530567703006312,0.00041735443218786198
1785723960,2300.78071,2301.17786,2300.38071,2300.78786,135,23,-6.4658634538152606,-6.0935709480439346,-0.372292505771326,0,0.18425701560057961,124.5,135,-6.4658634538152606,-2.6147288072486674e-05,0.00040042156602951566
1785724020,2300.78786,2301.29722,2300.52786,2300.84722,136,24,-5.4900398406374498,-5.8923939122417739,0.40235407160432413,0,0.17163521541507887,125.5,136,-5.4900398406374498,4.7210366959760108e-05,0.00037298264292202514
1785724080,2300.84722,2301.11722,2300.48525,2300.81525,100,25,-4.5217391304347823,-5.4355089849727767,0.91376985453799442,0,0.15791300990021584,126.5,100,-4.5217391304347823,-3.6882048529029987e-05,0.00034316751399360686
1785724140,2300.81525,2301.14525,2300.17236,2300.57236,101,26,-6.2952646239554317,-5.7220941979669959,-0.57317042598843582,-101,0.14442725135261639,125.65000000000001,101,-6.2952646239554317,-7.646163967223174e-05,0.00031389417230201001
1785724200,2300.57236,2300.96236,2299.78625,2300.04625,102,27,-8.1089743589743595,-6.5177209183027838,-1.5912534406715757,-102,0.13362323171983898,124.8,102,-8.1089743589743595,-0.00015868072274116685,0.00029047944518471961
1785724260,2300.04625,2300.49625,2298.89656,2299.22656,103,28,-9.9636950383219034,-7.6663789583091573,-2.2973160800127461,-103,0.12727921942837331,123.95,103,-9.9636950383219034,-0.0003153017920558554,0.00027678703274107381
1785724320,2299.22656,2299.49656,2297.76807,2298.16807,104,29,-11.860276198212835,-9.0643447049437178,-2.7959314932691175,-104,0.12620519456613866,123.09999999999999,104,-11.860276198212835,-0.00046203538170264125,0.00027457781746601905
1785724380,2298.16807,2298.49807,2296.72195,2296.98195,105,30,-13.799591002044989,-10.642760137310809,-3.1568308647341805,-105,0.12684174956671271,122.25,105,-13.799591002044989,-0.00046864166863347378,0.00027610523793343854
1785724440,2296.98195,2297.37195,2295.48653,2295.81653,106,31,-15.782537067545304,-12.356019114055641,-3.4265179534896628,-106,0.12937228716724566,121.40000000000001,106,-15.782537067545304,-0.0005118629361717808,0.00028175658959831091
1785724500,2295.81653,2296.26653,2294.43119,2294.83119,107,32,-16.781418498548319,-13.831152242219868,-2.950266256328451,-107,0.13093549410007718,120.55,107,-16.781418498548319,-0.0004568104368116721,0.00028528349856548095
1785724560,2294.83119,2295.10119,2293.90803,2294.16803,108,20,-16.758563074352548,-14.806955852930763,-1.951607221421785,-108,0.1312030525821363,119.7,108,-16.758563074352548,-0.00034159491756735605,0.00028594909105706675
1785724620,2294.16803,2294.49803,2293.59648,2293.92648,109,21,-16.735380732015145,-15.449764145958891,-1.2856165860562534,-109,0.13105854545242054,118.84999999999999,109,-16.735380732015145,-0.00016799758093632988,0.0002856642237558122
1785724680,2293.92648,2294.53555,2293.52648,2294.14555,110,22,-15.779661016949152,-15.559729769622312,-0.21993124732684066,0,0.13213275482773862,118,110,-15.779661016949152,2.7112307683374581e-05,0.00028797814251092004
1785724740,2294.14555,2295.24683,2293.88555,2294.79683,111,23,-13.854033290653009,-14.991164276632546,1.1371309859795371,111,0.13520164106000448,117.15000000000001,111,-13.854033290653009,0.00025012536708590716,0.00029458303082108679
1785724800,2000,2001,1999,2000,507,113,-15.346087704213241,-15.109472085826113,-0.23661561838712863,-290.75,9.852152596259053,116.3,290.75,-15.346087704213241,-0.13743012580282166,0.024630381490647633
1785724860,2002,2003,2001,2002,508,114,-12.239275147928995,-14.152739773193741,1.913464625264746,0,9.8642181739751322,135.19999999999999,338,-12.239275147928995,0.00099950033308360275,0.024635909525412416
1785724920,2004,2005,2003,2004,509,115,-9.8880597014925371,-12.731179749293341,2.8431200478008041,0,9.8762484967274045,154.09999999999999,385.25,-9.8880597014925371,0.00099850232958953455,0.024641338564689131
1785724980,2006,2007,2005,2006,510,116,-8.044797687861271,-11.169052395482652,3.1242547076213807,0,9.8883923880388718,173,432.5,-8.044797687861271,0.00099750631712591797,0.024647039850545543
1785725040,2008,2009,2007,2008,511,117,-6.5594059405940595,-9.6325035771864549,3.0730976365923954,0,9.9008192020518671,191.90000000000001,479.75,-6.5594059405940595,0.00099651228973840489,0.024653434268057432
1785725100,2010,2011,2009,2010,512,118,-5.3356261859582537,-8.2002111134437214,2.8645849274854678,0,9.9135607509805599,210.80000000000001,512,-5.3356261859582537,0.00099552024150195706,0.024660598883036216
1785725160,2012,2013,2011,2012,513,119,-4.8966042664344798,-7.0990088311073087,2.202404564672829,0,9.9268881139097669,229.69999999999999,513,-4.8966042664344798,0.00099453016650841164,0.024669205054447727
1785725220,2014,2015,2013,2014,514,120,-4.5243362831858409,-6.2407846484668195,1.7164483652809785,0,9.9405232368770839,248.59999999999999,514,-4.5243362831858409,0.00099354205887713931,0.024678558184898419
1785725280,2016,2017,2015,2016,515,100,-4.2046728971962617,-5.5620807313766338,1.3574078341803721,0,9.954386626342604,267.5,515,-4.2046728971962617,0.00099255591275237975,0.024688458894698916
1785725340,2018,2019,2017,2018,516,101,-3.551604509973981,-4.8919219909090836,1.3403174809351026,0,9.9684755149676878,288.25,516,-3.551604509973981,0.00099157172229435986,0.024698898699127076
1785725400,2020,2021,2019,2020,517,102,-2.983009708737864,-4.2556178968520104,1.2726081881141464,0,9.982645485710254,309,517,-2.983009708737864,0.00099058948169616912,0.024709518528985775
1785725460,2022,2023,2021,2022,518,103,-2.4829416224412433,-3.6647258053817549,1.1817841829405116,0,9.9965530691796296,329.75,518,-2.4829416224412433,0.00098960918516688423,0.02471946851923746
1785725520,2024,2025,2023,2024,519,104,-2.0392296718972895,-3.1228937608869334,1.0836640889896438,0,10.010274396785935,350.5,519,-2.0392296718972895,0.00098863082693956272,0.024728938727237981
1785725580,2026,2027,2025,2026,520,105,-1.6424242424242423,-2.6294039213993701,0.98697967897512773,0,10.0236670120452,371.25,520,-1.6424242424242423,0.00098765440127213111,0.024737579003073048
1785725640,2028,2029,2027,2028,521,106,-1.2850765306122449,-2.1812947911369953,0.8962182605247504,0,10.036711211493333,392,521,-1.2850765306122449,0.00098667990244472037,0.024745343223602893
1785725700,2030,2031,2029,2030,522,107,-0.96123561477892183,-1.7746083990176378,0.81337278423871595,0,10.049418195954432,412.75,522,-0.96123561477892183,0.00098570732475966594,0.024752261566390224
1785725760,2032,2033,2031,2032,523,108,-0.66608996539792387,-1.4051022544777334,0.73901228907980954,0,10.061884231758119,433.5,523,-0.66608996539792387,0.00098473666253973136,0.02475857340491663
1785725820,2034,2035,2033,2034,524,109,-0.39570720968629608,-1.0686372395472543,0.67293002986095818,0,10.074167859608954,454.25,524,-0.39570720968629608,0.00098376791013254916,0.024764424433650324
1785725880,2036,2037,2035,2036,525,110,-0.37842105263157894,-0.83856517724202928,0.46014412461045034,0,10.086625013719511,475,525,-0.37842105263157894,0.00098280106190795635,0.024770690112277772
1785725940,2038,2039,2037,2038,526,111,-0.58648512355017646,-0.75453849267807838,0.16805336912790192,0,10.099151348561461,495.75,526,-0.58648512355017646,0.00098183611225710621,0.024777113220219481
1785726000,2040,2041,2039,2040,527,112,0,-0.50302566178538566,0.50302566178538566,0,10.111834360330969,516.5,527,0,0.00098087305559158011,0.024783907745909235
1785726060,2042,2043,2041,2042,528,113,0,-0.33535044119025714,0.33535044119025714,0,10.124816027346768,517.5,528,0,0.00097991188634871662,0.024791420243258491
1785726120,2044,2045,2043,2044,529,114,0,-0.2235669607935048,0.2235669607935048,0,10.138053681758199,518.5,529,0,0.00097895259898450604,0.024799544231306748
1785726180,2046,2047,2045,2046,530,115,0,-0.14904464052900321,0.14904464052900321,0,10.151268483544055,519.5,530,0,0.00097799518797625495,0.024807596489599348
1785726240,2048,2049,2047,2048,531,116,0,-0.099363093686002144,0.099363093686002144,0,10.164526798803214,520.5,531,0,0.00097703964782702712,0.024815739254890657
1785726300,2050,2051,2049,2050,532,117,0,-0.066242062457334772,0.066242062457334772,0,10.177647935572695,521.5,532,0,0.00097608597305498535,0.024823531550177302
1785726360,2052,2053,2051,2052,533,118,0,-0.044161374971556519,0.044161374971556519,0,10.190523358264716,522.5,533,0,0.00097513415820671412,0.024830709937292195
1785726420,2054,2055,2053,2054,534,119,0,-0.029440916647704349,0.029440916647704349,0,10.203041478405384,523.5,534,0,0.0009741841978430088,0.024837004572554489
1785726480,2056,2057,2055,2056,535,120,0,-0.019627277765136234,0.019627277765136234,0,10.215152350314574,524.5,535,0,0.00097323608655219829,0.024842296571776685
1785726540,2058,2059,2057,2058,536,100,0,-0.013084851843424158,0.013084851843424158,0,10.226784728980581,525.5,536,0,0.00097228981893948685,0.024846415765258943
1785726600,2060,2061,2059,2060,537,101,1.0199430199430199,0.33125777208539048,0.68868524785762952,537,0.0034619741372829424,526.5,537,1.0199430199430199,0.00097134538963228323,8.4028498477741309e-06
1785726660,2062,2063,2061,2062,538,102,2.0379146919431279,0.90014341203796966,1.1377712799051583,538,0.0034585160196181678,527.5,538,2.0379146919431279,0.00097040279327842427,8.3863143055726665e-06
1785726720,2064,2065,2063,2064,539,103,3.0539262062440868,1.6180710101066755,1.4358551961374113,539,0.0034550648032155343,528.5,539,3.0539262062440868,0.00096946202454795127,8.3698275271694145e-06
1785726780,2066,2067,2065,2066,540,104,4.0679886685552411,2.4347102295895309,1.6332784389657102,540,0.0034516204674189888,529.5,540,4.0679886685552411,0.00096852307813044547,8.3533893209559255e-06
1785726840,2068,2069,2067,2068,541,105,5.0801131008482567,3.3165111866757728,1.7636019141724839,541,0.0034481829917120716,530.5,541,5.0801131008482567,0.00096758594873591619,8.3369994964024938e-06
1785726900,2070,2071,2069,2070,542,106,6.0903104421448733,4.2411109384988066,1.8491995036460667,542,0.0034447523555813627,531.5,542,6.0903104421448733,0.00096665063109480087,8.3206578637230984e-06
1785726960,2072,2073,2071,2072,543,107,7.098591549295775,5.1936044754311297,1.9049870738646453,543,0.0034413285386551279,532.5,543,7.098591549295775,0.00096571711995885323,8.3043642342063899e-06
1785727020,2074,2075,2073,2074,544,108,8.1049671977507032,6.1640587162043214,1.9409084815463817,544,0.0034379115206242144,533.5,544,8.1049671977507032,0.00096478541009936691,8.2881184200198034e-06
1785727080,2076,2077,2075,2076,545,109,9.1094480823199255,7.1458551715761898,1.9635929107437358,545,0.0034345012812366685,534.5,545,9.1094480823199255,0.00096385549630628731,8.271920234192361e-06
1785727140,2078,2079,2077,2078,546,110,10.11204481792717,8.1345850536931827,1.9774597642339877,546,0.0034310978003824384,535.5,546,10.11204481792717,0.00096292737339354062,8.2557694908143357e-06
1785727200,2080,2081,2079,2080,547,111,11.112767940354146,9.1273126825801718,1.9854552577739746,547,0.0034277010579520919,536.5,547,11.112767940354146,0.00096200103619104027,8.239666004692529e-06
1785727260,2082,2083,2081,2082,548,112,12.111627906976745,10.122084424045696,1.9895434829310492,548,0.0034243110339684068,537.5,548,12.111627906976745,0.00096107647955001596,8.2236095916628406e-06
1785727320,2084,2085,2083,2084,549,113,13.108635097493035,11.117601315194809,1.991033782298226,549,0.0034209277085060726,538.5,549,13.108635097493035,0.00096015369834390185,8.2076000683926885e-06
1785727380,2086,2087,2085,2086,550,114,14.103799814643189,12.113000815010937,1.9907989996322524,550,0.0034175510617700943,539.5,550,14.103799814643189,0.00095923268746034296,8.1916372525649427e-06
1785727440,2088,2089,2087,2088,500,115,15.00277520814061,13.076258946054162,1.926516262086448,500,0.0034141810739989785,540.5,500,15.00277520814061,0.00095831344181096512,8.1757209626412318e-06
1785727500,2090,2091,2089,2090,501,116,15.975507932090174,14.042675274732833,1.9328326573573413,501,0.0034108177254521936,538.95000000000005,501,15.975507932090174,0.00095739595632782226,8.1598510178282145e-06
1785727560,2092,2093,2091,2092,502,117,16.955712690733161,15.013687746732943,1.9420249440002184,502,0.0034074609966040013,537.39999999999998,502,16.955712690733161,0.00095648022595629101,8.1440272385372876e-06
1785727620,2094,2095,2093,2094,503,118,17.943454324904359,15.990276606123416,1.9531777187809425,503,0.0034041108678857664,535.85000000000002,503,17.943454324904359,0.0009555662456692815,8.12824944576353e-06
1785727680,2096,2097,2095,2096,504,119,18.938798427849523,16.973117213365452,1.9656812144840714,504,0.0034007673198894312,534.29999999999995,504,18.938798427849523,0.00095465401045036202,8.1125174615682994e-06
1785727740,2098,2099,2097,2098,505,120,19.941811356170813,17.962681927633906,1.9791294285369077,505,0.0033974303332051027,532.75,505,19.941811356170813,0.00095374351530974621,8.0968311086870885e-06
1785727800,2100,2101,2099,2100,506,100,19.941641566265059,18.622335140510955,1.3193064257541032,506,0.0033940998885775256,531.20000000000005,506,19.941641566265059,0.00095283475527185857,8.0811902108988702e-06
1785727860,2102,2103,2101,2102,507,101,19.94147078259228,19.06204702120473,0.87942376138754952,507,0.0033907759667532321,529.64999999999998,507,19.94147078259228,0.00095192772538243986,8.0655945926575451e-06
1785727920,2104,2105,2103,2104,508,102,19.941298996402196,19.355131012937221,0.5861679834649749,508,0.0033874585486030522,528.10000000000002,508,19.941298996402196,0.00095102242070410625,8.0500440793798768e-06
1785727980,2106,2107,2105,2106,509,103,19.941126198841516,19.550462741571987,0.39066345726952889,509,0.0033841476150921691,526.54999999999995,509,19.941126198841516,0.00095011883631990202,8.0345384973698215e-06
1785728040,2108,2109,2107,2108,510,104,19.940952380952382,19.680625954698787,0.26032642625359514,510,0.0033808431471562821,525,510,19.940952380952382,0.00094921696733241134,8.0190776735205922e-06
1785728100,2110,2111,2109,2110,511,105,19.940777533670836,19.76734314768947,0.17343438598136629,511,0.0033775451259416807,523.45000000000005,511,19.940777533670836,0.00094831680885931746,8.0036614358807602e-06
1785728160,2112,2113,2111,2112,512,106,19.940601647825254,19.825095981068067,0.11550566675718699,512,0.0033742535325624041,521.89999999999998,512,19.940601647825254,0.00094741835603961988,7.9882896130738729e-06
1785728220,2114,2115,2113,2114,513,107,19.940424714134718,19.863538892090286,0.076885822044431507,513,0.0033709683482686576,520.35000000000002,513,19.940424714134718,0.00094652160403096985,7.9729620346940807e-06
1785728280,2116,2117,2115,2116,514,108,19.940246723207405,19.889108169129329,0.051138554078075771,514,0.0033676895543461234,518.79999999999995,514,19.940246723207405,0.00094562654800700585,7.9576785310636183e-06
1785728340,2118,2119,2117,2118,515,109,19.940067665538908,19.906094667932525,0.033972997606383615,515,0.0033644171321638096,517.25,515,19.940067665538908,0.00094473318316179444,7.9424389333423259e-06
1785728400,2120,2121,2119,2120,516,110,19.939887531510568,19.917358955791872,0.022528575718695265,516,0.0033611510631751523,515.70000000000005,516,19.939887531510568,0.00094384150470627759,7.9272430735263022e-06
1785728460,2122,2123,2121,2122,517,111,19.939706311387727,19.924808074323828,0.0148982370638997,517,0.0033578913289141398,514.14999999999998,517,19.939706311387727,0.000942951507870049,7.9120907844348248e-06
1785728520,2124,2125,2123,2124,518,112,19.939523995317987,19.929713381321882,0.0098106139961053884,518,0.0033546379109429783,512.60000000000002,518,19.939523995317987,0.00094206318790135413,7.8969818995832817e-06
1785728580,2126,2127,2125,2126,519,113,19.939340573329421,19.932922445324394,0.0064181280050270573,519,0.0033513907909454546,511.05000000000001,519,19.939340573329421,0.00094117654006353746,7.8819162533994695e-06
1785728640,2128,2129,2127,2128,520,114,20.039254170755644,19.968366353801478,0.070887816954165572,520,0.0033481499506235451,509.5,520,20.039254170755644,0.00094029155964214794,7.8668936809763748e-06
1785728700,2130,2131,2129,2130,521,115,20.039177277179235,19.991969994927398,0.047207282251836347,521,0.0033449153718264927,510.5,521,20.039177277179235,0.00093940824193516903,7.8519140183720482e-06
1785728760,2132,2133,2131,2132,522,116,20.039100684261975,20.007680224705592,0.031420459556382951,522,0.0033416870363723846,511.5,522,20.039100684261975,0.00093852658226456498,7.8369771021866427e-06
1785728820,2134,2135,2133,2134,523,117,20.039024390243902,20.01812827988503,0.020896110358872733,523,0.0033384649262121987,512.5,523,20.039024390243902,0.00093764657596384637,7.822082769944233e-06
1785728880,2136,2137,2135,2136,524,118,20.038948393378774,20.025068317716279,0.013880075662495273,524,0.0033352490233947932,513.5,524,20.038948393378774,0.0009367682183869519,7.8072308600065384e-06
1785728940,2138,2139,2137,2138,525,119,20.038872691933918,20.029669775788825,0.009202916145092388,525,0.0033320393099812119,514.5,525,20.038872691933918,0.00093589150490469564,7.7924212113685958e-06
1785729000,2140,2141,2139,2140,526,120,20.038797284190107,20.032712278589251,0.0060850056008554532,526,0.0033288357681108393,515.5,526,20.038797284190107,0.00093501643090654341,7.7776536638103711e-06
1785729060,2142,2143,2141,2142,527,100,20.038722168441431,20.034715575206647,0.0040065932347843614,527,0.0033256383800190168,516.5,527,20.038722168441431,0.00093414299179706006,7.7629280579342124e-06
1785729120,2144,2145,2143,2144,528,101,20.038647342995169,20.03602616446949,0.0026211785256791131,528,0.0033224471279583011,517.5,528,20.038647342995169,0.00093327118299857403,7.7482442349773802e-06
1785729180,2146,2147,2145,2146,529,102,20.038572806171651,20.036875045036879,0.0016977611347712696,529,0.0033192619943186456,518.5,529,20.038572806171651,0.00093240099995117731,7.7336020370891083e-06
1785729240,2148,2149,2147,2148,530,103,20.038498556304138,20.037416215459302,0.0010823408448352723,530,0.0033160829615223914,519.5,530,20.038498556304138,0.00093153243811183728,7.7190013070819164e-06
1785729300,2150,2151,2149,2150,531,104,20.038424591738714,20.037752340885774,0.00067225085293998177,531,0.0033129100120410822,520.5,531,20.038424591738714,0.00093066549295262035,7.7044418884676331e-06
1785729360,2152,2153,2151,2152,532,105,20.038350910834133,20.037951864201894,0.00039904663223921943,532,0.0033097431284398299,521.5,532,20.038350910834133,0.00092980015996690923,7.6899236255572252e-06
1785729420,2154,2155,2153,2154,533,106,20.038277511961724,20.03806041345517,0.00021709850655327045,533,0.0033065822933202862,522.5,533,20.038277511961724,0.00092893643465874476,7.6754463633247117e-06
1785729480,2156,2157,2155,2156,534,107,20.038204393505254,20.0381084068052,9.5986700053174445e-05,534,0.0033034274894195052,523.5,534,20.038204393505254,0.00092807431255348405,7.661009947633361e-06
1785729540,2158,2159,2157,2158,535,108,20.038131553860818,20.038116122490408,1.543137041082332e-05,535,0.0033002786994385195,524.5,535,20.038131553860818,0.00092721378919247144,7.6466142248343814e-06
