time,open,high,low,close,tick_volume,real_volume,buffer0,buffer1,buffer2,buffer3,buffer4,buffer5,buffer6,buffer7,buffer8,buffer9
1785715200,2300.0,2300.27,2299.74,2300.0,100,20,EMPTY,EMPTY,EMPTY,EMPTY,EMPTY,EMPTY,EMPTY,EMPTY,EMPTY,EMPTY
1785715260,2300.0,2302.06697,2299.67,2301.73697,101,21,EMPTY,EMPTY,EMPTY,EMPTY,EMPTY,EMPTY,EMPTY,EMPTY,0.00050189359262731159,EMPTY
1785715320,2301.73697,2303.70152,2301.33697,2303.31152,102,22,EMPTY,EMPTY,EMPTY,EMPTY,EMPTY,EMPTY,EMPTY,EMPTY,0.0007060718729441362,EMPTY
1785715380,2303.31152,2305.03901,2303.05152,2304.58901,103,23,EMPTY,EMPTY,EMPTY,EMPTY,EMPTY,EMPTY,EMPTY,EMPTY,0.00062651340494657148,EMPTY
1785715440,2304.58901,2305.7553,2304.25901,2305.4853,104,24,EMPTY,EMPTY,EMPTY,EMPTY,EMPTY,EMPTY,EMPTY,EMPTY,0.00040787293952515569,EMPTY
1785715500,2305.4853,2306.3103,2305.0853,2305.9803,105,25,EMPTY,EMPTY,EMPTY,EMPTY,EMPTY,EMPTY,EMPTY,EMPTY,0.00027127982322294741,EMPTY
1785715560,2305.9803,2306.51,2305.7203,2306.12,106,26,EMPTY,EMPTY,EMPTY,EMPTY,EMPTY,EMPTY,EMPTY,EMPTY,0.00014085274419617377,EMPTY
1785715620,2306.12,2306.57,2305.67651,2306.00651,107,27,EMPTY,EMPTY,EMPTY,EMPTY,EMPTY,EMPTY,EMPTY,EMPTY,-1.4061254449693195e-05,EMPTY
1785715680,2306.00651,2306.27651,2305.37791,2305.77791,108,28,EMPTY,EMPTY,EMPTY,EMPTY,EMPTY,EMPTY,EMPTY,EMPTY,-0.00011863380529408829,EMPTY
1785715740,2305.77791,2306.10791,2305.32184,2305.58184,109,29,EMPTY,EMPTY,EMPTY,EMPTY,EMPTY,EMPTY,EMPTY,EMPTY,-6.0824996301001022e-05,EMPTY
1785715800,2305.58184,2305.97184,2305.21733,2305.54733,110,30,EMPTY,EMPTY,EMPTY,EMPTY,EMPTY,EMPTY,EMPTY,EMPTY,-3.9770855772225389e-05,EMPTY
1785715860,2305.54733,2306.21024,2305.14733,2305.76024,111,31,EMPTY,EMPTY,EMPTY,EMPTY,EMPTY,EMPTY,EMPTY,EMPTY,5.5127080501371495e-05,EMPTY
1785715920,2305.76024,2306.51675,2305.50024,2306.24675,112,32,EMPTY,EMPTY,EMPTY,EMPTY,EMPTY,EMPTY,EMPTY,EMPTY,0.00016565209979635398,EMPTY
1785715980,2306.24675,2307.29786,2305.91675,2306.96786,113,20,EMPTY,EMPTY,EMPTY,EMPTY,EMPTY,EMPTY,EMPTY,EMPTY,0.00027730425557592753,EMPTY
1785716040,2306.96786,2308.21589,2306.56786,2307.82589,114,21,EMPTY,EMPTY,EMPTY,EMPTY,EMPTY,EMPTY,EMPTY,EMPTY,0.00035067636725116813,EMPTY
1785716100,2307.82589,2309.132,2307.56589,2308.682,115,22,EMPTY,EMPTY,EMPTY,EMPTY,EMPTY,EMPTY,EMPTY,EMPTY,0.000400094184207056,EMPTY
1785716160,2308.682,2309.65126,2308.352,2309.38126,116,23,EMPTY,EMPTY,EMPTY,EMPTY,EMPTY,EMPTY,EMPTY,EMPTY,0.000289419491251941,EMPTY
1785716220,2309.38126,2310.11088,2308.98126,2309.78088,117,24,EMPTY,EMPTY,EMPTY,EMPTY,EMPTY,EMPTY,EMPTY,EMPTY,0.0002148487788184994,EMPTY
1785716280,2309.78088,2310.17088,2309.51653,2309.77653,118,25,EMPTY,EMPTY,EMPTY,EMPTY,EMPTY,EMPTY,EMPTY,EMPTY,8.5280073945703805e-05,EMPTY
1785716340,2309.77653,2310.22653,2308.99168,2309.32168,119,26,EMPTY,EMPTY,EMPTY,EMPTY,EMPTY,EMPTY,EMPTY,EMPTY,-0.00013335975551864721,EMPTY
1785716400,2309.32168,2309.59168,2308.03677,2308.43677,120,27,EMPTY,EMPTY,EMPTY,EMPTY,EMPTY,109.5,120,EMPTY,-0.00035723429237677351,EMPTY
1785716460,2308.43677,2308.76677,2306.94625,2307.20625,121,28,EMPTY,EMPTY,EMPTY,EMPTY,EMPTY,110.5,121,EMPTY,-0.00045432212829510377,EMPTY
1785716520,2307.20625,2307.59625,2305.43422,2305.76422,122,29,EMPTY,EMPTY,EMPTY,EMPTY,EMPTY,111.5,122,EMPTY,-0.00059596378512072334,EMPTY
1785716580,2305.76422,2306.21422,2303.87113,2304.27113,123,30,EMPTY,EMPTY,EMPTY,EMPTY,EMPTY,112.5,123,EMPTY,-0.00064167738756637505,EMPTY
1785716640,2304.27113,2304.54113,2302.62589,2302.88589,124,31,EMPTY,EMPTY,EMPTY,EMPTY,EMPTY,113.5,124,EMPTY,-0.00062260455656470981,EMPTY
1785716700,2302.88589,2303.21589,2301.40829,2301.73829,125,32,EMPTY,EMPTY,EMPTY,EMPTY,EMPTY,114.5,125,EMPTY,-0.00053421093478522863,EMPTY
1785716760,2301.73829,2302.12829,2300.507,2300.907,126,20,EMPTY,EMPTY,EMPTY,EMPTY,EMPTY,115.5,126,EMPTY,-0.00040842860080747556,EMPTY
1785716820,2300.907,2301.357,2300.14681,2300.40681,127,21,EMPTY,EMPTY,EMPTY,EMPTY,EMPTY,116.5,127,EMPTY,-0.00023638051112584435,EMPTY
1785716880,2300.40681,2300.67681,2299.85763,2300.18763,128,22,EMPTY,EMPTY,EMPTY,EMPTY,EMPTY,117.5,128,EMPTY,-0.00017222076825973431,EMPTY
1785716940,2300.18763,2300.51763,2299.74545,2300.14545,129,23,EMPTY,EMPTY,EMPTY,EMPTY,EMPTY,118.5,129,EMPTY,-4.5436857188718704e-05,EMPTY
1785717000,2300.14545,2300.53545,2299.88298,2300.14298,130,24,EMPTY,EMPTY,EMPTY,0,0.16790234217585764,119.5,130,EMPTY,2.2154964567810964e-05,0.00036498240247625309
1785717060,2300.14298,2300.59298,2299.70653,2300.03653,131,25,EMPTY,EMPTY,EMPTY,0,0.16239532747179919,120.5,131,EMPTY,-3.2660194865918868e-05,0.00035302771358983415
1785717120,2300.03653,2300.30653,2299.3039,2299.7039,132,26,EMPTY,EMPTY,EMPTY,-132,0.15049832557898277,121.5,132,EMPTY,-0.00014807766493696306,0.00032721239803737943
1785717180,2299.7039,2300.0339,2298.80845,2299.06845,133,27,EMPTY,EMPTY,EMPTY,-133,0.1396081443631875,122.5,133,EMPTY,-0.00020345105506613947,0.00030361893827734332
1785717240,2299.06845,2299.45845,2297.78475,2298.11475,134,28,EMPTY,EMPTY,EMPTY,-134,0.13544141664863313,123.5,134,EMPTY,-0.0003701588181046489,0.00029467940329923282
1785717300,2298.11475,2298.56475,2296.49301,2296.89301,135,29,EMPTY,EMPTY,EMPTY,-135,0.135429043889226,124.5,135,EMPTY,-0.00049424875275505542,0.00029480921248749417
1785717360,2296.89301,2297.16301,2295.25152,2295.51152,136,30,EMPTY,EMPTY,EMPTY,-136,0.13857643500603656,125.5,136,EMPTY,-0.00058414457066913172,0.00030184216850725402
1785717420,2295.51152,2295.84152,2293.78834,2294.11834,100,31,EMPTY,EMPTY,EMPTY,-100,0.14303082853423046,126.5,100,EMPTY,-0.0006067308959423201,0.00031173376290220161
1785717480,2294.11834,2294.50834,2292.47565,2292.87565,101,32,EMPTY,EMPTY,EMPTY,-101,0.14657908876862899,125.65000000000001,101,EMPTY,-0.0005650495347824247,0.00031964029267925843
1785717540,2292.87565,2293.32565,2291.6714,2291.9314,102,20,EMPTY,EMPTY,EMPTY,-102,0.1474908055412045,124.8,102,EMPTY,-0.00042614453681899533,0.0003217609513557092
1785717600,2291.9314,2292.2014,2291.06338,2291.39338,103,21,EMPTY,EMPTY,EMPTY,-103,0.14726874509930257,123.95,103,EMPTY,-0.00033018590290812,0.00032135194765052207
1785717660,2291.39338,2291.72338,2290.91039,2291.31039,104,22,EMPTY,EMPTY,EMPTY,-104,0.1458838328338235,123.09999999999999,104,EMPTY,-0.00010386510337934141,0.00031834149024616325
1785717720,2291.31039,2292.05404,2291.05039,2291.66404,105,23,EMPTY,EMPTY,EMPTY,105,0.14513103383303114,122.25,105,EMPTY,0.00011991086339069312,0.00031664989130132518
1785717780,2291.66404,2292.82252,2291.33404,2292.37252,106,24,EMPTY,EMPTY,EMPTY,106,0.14468583183983558,121.40000000000001,106,EMPTY,0.00025606456455751214,0.00031558097686460568
1785717840,2292.37252,2293.57582,2291.97252,2293.30582,107,25,EMPTY,EMPTY,EMPTY,107,0.14440482896596285,120.55,107,EMPTY,0.00033806110401624068,0.00031483988682757288
1785717900,2293.30582,2294.63941,2293.04582,2294.30941,108,26,EMPTY,EMPTY,EMPTY,108,0.14620578823928393,119.7,108,EMPTY,0.00045643696841235482,0.00031862700732959107
1785717960,2294.30941,2295.62226,2293.97941,2295.23226,109,27,EMPTY,EMPTY,EMPTY,109,0.14952816384543877,118.84999999999999,109,EMPTY,0.000412482806162906,0.0003257364547617476
1785718020,2295.23226,2296.40403,2294.83226,2295.95403,110,28,EMPTY,EMPTY,EMPTY,110,0.15243098977881064,118,110,EMPTY,0.00034219951696545792,0.00033195566589547666
1785718080,2295.95403,2296.67645,2295.69403,2296.40645,111,29,EMPTY,EMPTY,EMPTY,111,0.15482788789254273,117.15000000000001,111,EMPTY,0.00023034462527693478,0.00033710906858962783
1785718140,2296.40645,2296.91501,2296.07645,2296.58501,112,30,-2.6827171109200343,-2.6827171109200343,0,112,0.15690468969458415,116.3,112,-2.6827171109200343,0.00011605740942854936,0.00034160435823489104
1785718200,2296.58501,2296.97501,2296.14896,2296.54896,113,31,-2.7024686011260286,-2.6893009409886992,-0.013167660137329396,0,0.15707149352518529,115.45,113,-2.7024686011260286,1.4000762625698826e-05,0.00034197288248795984
1785718260,2296.54896,2296.99896,2296.14938,2296.40938,114,32,-2.7225130890052358,-2.7003716569942116,-0.022141432011024254,0,0.15573976449874832,114.59999999999999,114,-2.7225130890052358,-1.6722268888713643e-05,0.00033909407846685488
1785718320,2296.40938,2296.67938,2295.97785,2296.30785,115,20,-2.5934065934065935,-2.6647166357983392,0.071310042391745654,-115,0.15133176008240659,113.75,115,-2.5934065934065935,-8.60237354851634e-05,0.00032951104548635882
1785718380,2296.30785,2296.71924,2295.90785,2296.38924,116,21,-1.4348981399468554,-2.2547771371811782,0.81987899723432278,0,0.14568504206018509,112.90000000000001,116,-1.4348981399468554,7.4394061755356233e-06,0.00031720459128302018
1785718440,2296.38924,2297.16388,2296.12924,2296.77388,117,22,0.79428826416778231,-1.2384220033981914,2.0327102675659736,117,0.14093240506598015,112.05,117,0.79428826416778231,0.00015250216242623793,0.00030680513718220304
1785718500,2296.77388,2297.98413,2296.44388,2297.53413,118,23,3.0755395683453237,0.19956518718298011,2.8759743811623437,118,0.13908634759758307,111.2,118,3.0755395683453237,0.00027501610868618798,0.00030268614028724583
1785718560,2297.53413,2298.94944,2297.13413,2298.67944,119,24,5.4100589034888991,1.9363964259516198,3.4736624775372791,119,0.14140370912616032,110.34999999999999,119,5.4100589034888991,0.00040631404602109455,0.000307575964411463
1785718620,2298.67944,2300.48299,2298.41944,2300.15299,120,25,7.4611872146118721,3.7779933555050373,3.6831938591068347,120,0.15066322030011889,109.5,120,7.4611872146118721,0.00062236720895469944,0.00032750695487459479
1785718680,2300.15299,2302.23021,2299.82299,2301.84021,121,26,9.4027149321266972,5.6529005477122576,3.7498143844144396,121,0.161199973432573,110.5,121,9.4027149321266972,0.00070100820595708768,0.0003501545692274031
1785718740,2301.84021,2304.03783,2301.44021,2303.58783,122,27,11.327354260089686,7.5443851185047341,3.7829691415849522,122,0.17221452453020306,111.5,122,11.327354260089686,0.00074892861651409959,0.00037379630654283118
1785718800,2303.58783,2305.5,2303.32783,2305.23,123,28,13.235555555555555,9.4414419308550084,3.7941136247005467,123,0.18128007980686953,112.5,123,13.235555555555555,0.00072226225060934013,0.00039319304322533874
1785718860,2305.23,2306.94671,2304.9,2306.61671,124,29,15.127753303964758,11.336879055224925,3.7908742487398328,124,0.18721118518484958,113.5,124,15.127753303964758,0.00063699018701601773,0.00040581338107285625
1785718920,2306.61671,2308.02932,2306.21671,2307.63932,125,30,15.170305676855895,12.614687929101915,2.5556177477539794,125,0.18911332698767569,114.5,125,15.170305676855895,0.00049448610386804148,0.00040975495032663002
1785718980,2307.63932,2308.69868,2307.37932,2308.24868,126,31,15.212121212121213,13.480499023441682,1.7316221886795304,126,0.18825162751621266,115.5,126,15.212121212121213,0.00035263507737859356,0.00040778021265068509
1785719040,2308.24868,2308.73248,2307.91868,2308.46248,127,32,15.253218884120171,14.071405643667845,1.1818132404523265,127,0.1833904688321823,116.5,127,15.253218884120171,0.00011364502574284785,0.00039721344925688868
1785719100,2308.46248,2308.79248,2307.96052,2308.36052,128,20,14.204255319148936,14.11568886882821,0.088566450320726631,0,0.17557815872354884,117.5,128,14.204255319148936,-1.7328235735192266e-08,0.00038030922206975886
1785719160,2308.36052,2308.75052,2307.80881,2308.06881,129,21,13.164556962025317,13.798644899893914,-0.63408793786859619,0,0.16492443779935884,118.5,129,13.164556962025317,-7.0092282168587872e-05,0.00035727799163699715
1785719220,2308.06881,2308.51881,2307.40537,2307.73537,130,22,11.04602510460251,12.881104968130114,-1.8350798635276035,-130,0.15326815133182034,119.5,130,11.04602510460251,-0.00013988588672653179,0.00033207479792585654
1785719280,2307.73537,2308.00537,2307.10219,2307.50219,131,23,8.9460580912863072,11.569422675848847,-2.6233645845625393,-131,0.14216640210140372,120.5,131,8.9460580912863072,-0.0001516365136726705,0.00030805258325974482
1785719340,2307.50219,2307.83219,2307.21846,2307.47846,132,24,7.9506172839506171,10.363154211882771,-2.4125369279321536,0,0.13291627057794447,121.5,132,7.9506172839506171,-1.1648853914358881e-05,0.00028801194221753313
1785719400,2307.47846,2308.10995,2307.14846,2307.71995,133,25,8.9714285714285715,9.8992456650647043,-0.92781709363613274,133,0.12511269204821257,122.5,133,8.9714285714285715,6.4894696151007736e-05,0.00027107425242004033
1785719460,2307.71995,2308.66826,2307.31995,2308.21826,134,26,9.9838056680161937,9.9274323327152008,0.056373335300992977,134,0.12188181884178249,123.5,134,9.9838056680161937,0.00017738045939186264,0.00026401710131558896
1785719520,2308.21826,2309.17198,2307.95826,2308.90198,135,27,11.911646586345382,10.588837083925261,1.322809502420121,135,0.12146906296137754,124.5,135,11.911646586345382,0.00026364166733028327,0.00026304508379644927
1785719580,2308.90198,2309.97954,2308.57198,2309.64954,136,28,12.900398406374501,11.359357524741675,1.541040881632826,136,0.12162848122530089,125.5,136,12.900398406374501,0.00031309419639224956,0.00026330505801607651
1785719640,2309.64954,2310.70133,2309.24954,2310.31133,100,29,12.664031620553359,11.794248890012238,0.86978273054112165,100,0.12149957758633403,126.5,100,12.664031620553359,0.00029745578229434244,0.00026295065952503904
1785719700,2310.31133,2311.18718,2310.05133,2310.73718,101,30,12.614405093513728,12.067634291179402,0.54677080233432562,101,0.12020171181270067,125.65000000000001,101,12.614405093513728,0.00024721693889873109,0.00026009386280074625
1785719760,2310.73718,2311.07411,2310.40718,2310.80411,102,31,11.746794871794872,11.960687818051227,-0.21389294625635458,0,0.12034673488975377,124.8,102,11.746794871794872,4.4677462151199165e-05,0.00026040012298955483
1785719820,2310.80411,2311.13411,2310.03931,2310.43931,103,32,10.028237192416297,11.316537609506252,-1.288300417089955,-103,0.12287425259039658,123.95,103,10.028237192416297,-9.7039085864558672e-05,0.00026591101540424485
1785719880,2310.43931,2310.82931,2309.3742,2309.6342,104,20,8.2696994313566208,10.300924883456375,-2.0312254520997541,-104,0.12885492261340872,123.09999999999999,104,8.2696994313566208,-0.00025610884191173966,0.00027895093217230834
1785719940,2309.6342,2310.0842,2308.11698,2308.44698,105,21,6.4703476482617583,9.0240658050581715,-2.5537181567964131,-105,0.13978792190406567,122.25,105,6.4703476482617583,-0.00046036925758219382,0.00030277481595887822
1785720000,2308.44698,2308.71698,2306.59307,2306.99307,106,22,4.6293245469522235,7.5591520523561888,-2.9298275054039653,-106,0.15440222362009376,121.40000000000001,106,4.6293245469522235,-0.00062749013332741299,0.00033463954796382147
1785720060,2306.99307,2307.32307,2305.16549,2305.42549,107,23,2.7457486520116134,5.9546842522413312,-3.2089356002297178,-107,0.16716707782923262,120.55,107,2.7457486520116134,-0.00063424873948481064,0.00036255146512939921
1785720120,2305.42549,2305.81549,2303.57829,2303.90829,108,24,0.81871345029239762,4.2426939849250207,-3.4239805346326229,-108,0.17902352077051012,119.7,108,0.81871345029239762,-0.00066689438309897042,0.00038852136942158866
1785720180,2303.90829,2304.35829,2302.18828,2302.58828,109,25,-1.1527135044173329,2.4442248218109031,-3.5969383262282362,-109,0.18843865935377457,118.84999999999999,109,-1.1527135044173329,-0.00060296460752518044,0.00040918878331512782
1785720240,2302.58828,2302.85828,2301.3099,2301.5699,110,26,-3.1694915254237288,0.57298603939935933,-3.7424775648230879,-110,0.19444372414605904,118,110,-3.1694915254237288,-0.00049175552835922787,0.00042241542206921252
1785720300,2301.5699,2301.8999,2300.56786,2300.89786,111,27,-4.1399914639351261,-0.99800646171213581,-3.1419850022229903,-111,0.19661420323535589,117.15000000000001,111,-4.1399914639351261,-0.00034360811170408567,0.00042725539158734293
1785720360,2300.89786,2301.28786,2300.15085,2300.55085,112,28,-5.1332760103181432,-2.3764296445808051,-2.7568463657373381,-112,0.19530924920110265,116.3,112,-5.1332760103181432,-0.00019935162646955717,0.00042448366051353012
1785720420,2300.55085,2301.00085,2300.1871,2300.4471,113,29,-4.0450411433521003,-2.9326334775045702,-1.1124076658475301,0,0.1888200563488549,115.45,113,-4.0450411433521003,-5.1364769775297248e-05,0.00041039860544686053
1785720480,2300.4471,2300.73116,2300.1171,2300.46116,114,30,-2.9319371727748691,-2.9324013759280034,0.00046420315313433491,0,0.17944799256381669,114.59999999999999,114,-2.9319371727748691,-4.7182686384594774e-05,0.00039002612972569527
1785720540,2300.46116,2300.79116,2300.04851,2300.44851,115,31,-2.953846153846154,-2.9395496352340538,-0.01429651861210024,0,0.16726668164961309,113.75,115,-2.953846153846154,-3.0776815522770562e-06,0.00036355232669305228
1785720600,2300.44851,2300.83851,2300.01361,2300.27361,116,32,-4.1541186891054025,-3.3444059865245035,-0.809712702580899,0,0.15418027660064113,112.90000000000001,116,-4.1541186891054025,-2.3539360732627301e-05,0.00033513464644025783
1785720660,2300.27361,2300.72361,2299.50638,2299.83638,117,20,-6.4257028112449799,-4.3715049280979965,-2.0541978831469834,-117,0.14221283307479154,112.05,117,-6.4257028112449799,-0.00015351717364797679,0.00030918032759093831
1785720720,2299.83638,2300.10638,2298.69199,2299.09199,118,21,-8.75,-5.8310032853986646,-2.9189967146013354,-118,0.13424575163450067,111.2,118,-8.75,-0.00031541047136496303,0.00029195385008170264
1785720780,2299.09199,2299.42199,2297.80061,2298.06061,119,22,-11.128228364295424,-7.5967449783642511,-3.5314833859311729,-119,0.12969211956261453,110.34999999999999,119,-11.128228364295424,-0.00037803483263854076,0.00028217732595532918
1785720840,2298.06061,2298.45061,2296.49522,2296.82522,120,23,-13.223744292237443,-9.4724114163219824,-3.7513328759154607,-120,0.13121630742983451,109.5,120,-13.223744292237443,-0.00050948665461714171,0.00028564713215277758
1785720900,2296.82522,2297.27522,2295.11777,2295.51777,121,24,-15.113122171945701,-11.352648334863222,-3.7604738370824791,-121,0.13440096990520381,110.5,121,-15.113122171945701,-0.00056028726268309015,0.00029274652468755185
1785720960,2295.51777,2295.78777,2294.03637,2294.29637,122,25,-16.071748878923767,-12.92568184955007,-3.1460670293736968,-122,0.13737426490568369,111.5,122,-16.071748878923767,-0.00055042716958553228,0.00029938212582728289
1785721020,2294.29637,2294.62637,2292.98751,2293.31751,123,26,-16.106666666666666,-13.98601012192227,-2.1206565447443957,-123,0.13896868125458797,112.5,123,-16.106666666666666,-0.00046336477046793334,0.00030298613394921483
1785721080,2293.31751,2293.70751,2292.30843,2292.70843,124,27,-16.140969162995596,-14.704329802280046,-1.4366393607155494,-124,0.13916240237345559,113.5,124,-16.140969162995596,-0.00032079581893906806,0.00030348909733248457
1785721140,2292.70843,2293.15843,2292.28461,2292.54461,125,28,-16.174672489082969,-15.194444031214356,-0.98022845786861268,-125,0.13840919675581032,114.5,125,-16.174672489082969,-0.00010710698888427572,0.0003018680555921883
1785721200,2292.54461,2293.10653,2292.21461,2292.83653,126,29,-15.116883116883116,-15.168590393103944,0.051707276220827936,0,0.13789555654701505,115.5,126,-15.116883116883116,2.4719134038342361e-05,0.00030070952451855567
1785721260,2292.83653,2293.85803,2292.43653,2293.52803,127,30,-12.978540772532188,-14.438573852913361,1.460033080381173,127,0.13932765143424999,116.5,127,-12.978540772532188,0.00024202971317954791,0.00030374089527532392
1785721320,2293.52803,2294.89664,2293.26803,2294.50664,128,31,-10.859574468085107,-13.245574057970611,2.385999589885504,128,0.14349578424810117,117.5,128,-10.859574468085107,0.00041398311401774635,0.00031269420132970537
1785721380,2294.50664,2296.07395,2294.17664,2295.62395,129,32,-8.7594936708860764,-11.750213928942433,2.9907202580563563,129,0.14793880207755467,118.5,129,-8.7594936708860764,0.00046529678481466163,0.0003222191554447641
1785721440,2295.62395,2296.99232,2295.22395,2296.72232,130,20,-6.6778242677824267,-10.059417375222431,3.3815931074400041,130,0.15197046446421147,119.5,130,-6.6778242677824267,0.00044487718586339042,0.00033084205073648497
1785721500,2296.72232,2297.99308,2296.46232,2297.66308,131,21,-4.614107883817427,-8.2443142114207646,3.6302063276033376,131,0.15739576682229656,120.5,131,-4.614107883817427,0.00046148710367965862,0.00034251272127830109
1785721560,2297.66308,2298.74111,2297.33308,2298.35111,132,22,-2.5679012345679011,-6.3521765524698104,3.7842753179019093,132,0.16226013697055713,121.5,132,-2.5679012345679011,0.0003346480536867702,0.0003529924915835795
1785721620,2298.35111,2299.20126,2297.95111,2298.75126,133,23,-1.4612244897959183,-4.7218591982451805,3.2606347084492624,133,0.16544906426347866,122.5,133,-1.4612244897959183,0.00021440097813041348,0.00035986726172252027
1785721680,2298.75126,2299.16375,2298.49126,2298.89375,134,24,-0.36437246963562753,-3.2693636220419964,2.9049911524063687,134,0.16672110229938775,123.5,134,-0.36437246963562753,9.3548265708065514e-05,0.00036261158720229616
1785721740,2298.89375,2299.22375,2298.53747,2298.86747,135,25,-0.36144578313253012,-2.3000576757388416,1.9386118926063114,0,0.16528185502327294,124.5,135,-0.36144578313253012,1.1589787819232811e-05,0.00035948539265569956
1785721800,2298.86747,2299.25747,2298.40242,2298.80242,136,26,-0.35856573705179284,-1.6528936961764922,1.2943279591246992,0,0.16028666674426312,125.5,136,-0.35856573705179284,-2.4125121774076774e-05,0.00034863080304279285
1785721860,2298.80242,2299.29465,2298.54242,2298.84465,100,27,0.56916996047430835,-0.91220581062622541,1.4813757711005338,0,0.15469763390445765,126.5,100,0.56916996047430835,3.18143563990958e-05,0.00033646822090491771
1785721920,2298.84465,2299.39806,2298.51465,2299.12806,101,28,1.5121368881814563,-0.10409157769033162,1.6162284658717878,0,0.14744065517421515,125.65000000000001,101,1.5121368881814563,5.2059913535629221e-05,0.00032064472123013267
1785721980,2299.12806,2300.07836,2298.72806,2299.74836,102,29,3.2932692307692308,1.0283620251295225,2.2649072056397084,102,0.14240070411355965,124.8,102,3.2932692307692308,0.00021949179367997118,0.00030960062107308049
1785722040,2299.74836,2301.13396,2299.48836,2300.74396,103,30,5.1149657119806369,2.3905632540798938,2.7244024579007431,103,0.14219262846900732,123.95,103,5.1149657119806369,0.0004074661045780914,0.00030901445563070675
1785722100,2300.74396,2302.53714,2300.41396,2302.08714,104,31,6.9780666125101547,3.9197310402233141,3.0583355722868406,104,0.14658789962842439,123.09999999999999,104,6.9780666125101547,0.00053192126614298729,0.00031838043200316121
1785722160,2302.08714,2303.95736,2301.68714,2303.68736,105,32,8.8834355828220861,5.5742992210895714,3.3091363617325147,105,0.15400681986598103,122.25,105,8.8834355828220861,0.00062161649169301114,0.0003342615463801065
1785722220,2303.68736,2305.73589,2303.42736,2305.40589,106,20,10.831960461285007,7.3268529678213836,3.5051074934636235,106,0.16505259240302284,121.40000000000001,106,10.831960461285007,0.00075771379592115551,0.00035796861871256616
1785722280,2305.40589,2307.4693,2305.07589,2307.0793,107,21,12.824554126918292,9.1594200208536876,3.6651341060646043,107,0.17385170223482968,120.55,107,12.824554126918292,0.00073084855687710615,0.0003767787744331755
1785722340,2307.0793,2308.99747,2306.6793,2308.54747,108,22,14.862155388471178,11.060331810059518,3.8018235784116605,108,0.18015803505873806,119.7,108,14.862155388471178,0.00066451898730957026,0.00039019781356009554
1785722400,2308.54747,2309.95102,2308.28747,2309.68102,109,23,15.88557004627682,12.668744555465285,3.2168254908115355,109,0.18319260308910101,118.84999999999999,109,15.88557004627682,0.00053353042739789913,0.00039657554766826851
1785722460,2309.68102,2310.7333,2309.35102,2310.4033,110,24,15.85593220338983,13.731140438106801,2.1247917652830299,110,0.18265142239984972,118,110,15.85593220338983,0.00037062124172049238,0.00039528038762723746
1785722520,2310.4033,2311.09279,2310.0033,2310.70279,111,25,15.825864276568501,14.429381717594035,1.3964825589744656,111,0.17833340046196078,117.15000000000001,111,15.825864276568501,0.00018918379791266204,0.00038588563019383552
1785722580,2310.70279,2311.15279,2310.37382,2310.63382,112,26,14.832330180567498,14.563697871918524,0.26863230864897325,0,0.17250469070853205,116.3,112,14.832330180567498,5.2156817832660352e-05,0.00037328435430874986
1785722640,2310.63382,2310.90382,2309.97543,2310.30543,113,27,12.836725855348636,13.988040533061897,-1.1513146777132608,-113,0.16455318317164885,115.45,113,12.836725855348636,-0.00014076689195441361,0.00035612863354532486
1785722700,2310.30543,2310.63543,2309.46037,2309.86037,114,28,10.794066317626527,12.923382461250107,-2.1293161436235799,-114,0.15487709911907951,114.59999999999999,114,10.794066317626527,-0.00017725958007552833,0.00033525208088461099
1785722760,2309.86037,2310.25037,2309.18821,2309.44821,115,29,8.7032967032967026,11.516687208598974,-2.8133905053022712,-115,0.14426767189214071,113.75,115,8.7032967032967026,-0.00015432457171282721,0.00031234229732335215
1785722820,2309.44821,2309.89821,2308.86729,2309.19729,116,30,6.5633303808680248,9.8655682660219917,-3.3022378851539669,-116,0.13553186521996333,112.90000000000001,116,6.5633303808680248,-0.00013336364749250151,0.00029346099141655264
1785722880,2309.19729,2309.46729,2308.79079,2309.19079,117,31,4.3730477465417223,8.0347280928619025,-3.6616803463201801,-117,0.12986757552914158,112.05,117,4.3730477465417223,-7.4183288500506706e-05,0.00028119715376385501
1785722940,2309.19079,2309.78118,2308.93079,2309.45118,118,32,5.4676258992805753,7.1790273616681279,-1.7114014623875526,118,0.12708066176088387,111.2,118,5.4676258992805753,0.00010310334896779239,0.000275131734460141
1785723000,2309.45118,2310.32593,2309.12118,2309.93593,119,20,6.5881286814680564,6.9820611349347717,-0.39393245346671524,119,0.12587803668401165,110.34999999999999,119,6.5881286814680564,0.0001760614738604005,0.00027247084009817459
1785723060,2309.93593,2310.99523,2309.53593,2310.54523,120,21,7.7351598173515983,7.2330940290737145,0.50206578827788384,120,0.12591069291857626,109.5,120,7.7351598173515983,0.00024434255112204539,0.00027246965626069185
1785723120,2310.54523,2311.41041,2310.28523,2311.14041,121,22,8.760180995475114,7.7421230178741816,1.0180579776009324,121,0.12513300558258431,110.5,121,8.760180995475114,0.00025384753648260983,0.00027071701278111505
1785723180,2311.14041,2311.8995,2310.81041,2311.5695,122,23,8.8609865470852025,8.1150775276111879,0.74590901947401456,122,0.1236994723207774,111.5,122,8.8609865470852025,0.00020817018642027563,0.00026756598129707408
1785723240,2311.5695,2312.08554,2311.1695,2311.69554,123,24,8.9600000000000009,8.3967183517407928,0.56328164825920801,123,0.1228383815129607,112.5,123,8.9600000000000009,9.6785474176463993e-05,0.00026568892699633075
1785723300,2311.69554,2312.14554,2311.16227,2311.42227,124,25,7.964757709251101,8.2527314709108968,-0.28797376165979571,0,0.12279037970299378,113.5,124,7.964757709251101,-3.1795973594483939e-05,0.00026561650222179821
1785723360,2311.42227,2311.69227,2310.38259,2310.71259,125,26,5.8864628820960698,7.4639752746392887,-1.5775123925432188,-125,0.12860254235860774,114.5,125,5.8864628820960698,-0.00028016982974854443,0.00027827463899049372
1785723420,2310.71259,2311.04259,2309.19641,2309.59641,126,27,3.8268398268398269,6.2515967920394679,-2.424756965199641,-126,0.13810586977373404,115.5,126,3.8268398268398269,-0.00042589920744973142,0.00029898269060293101
1785723480,2309.59641,2309.98641,2307.90648,2308.16648,127,28,1.7854077253218885,4.7628671031336083,-2.9774593778117198,-127,0.14995190746011108,116.5,127,1.7854077253218885,-0.00054504456816850677,0.00032482905535503463
1785723540,2308.16648,2308.61648,2306.23289,2306.56289,128,29,-0.23829787234042554,3.0958121113089305,-3.334109983649356,-128,0.16406549726495709,117.5,128,-0.23829787234042554,-0.00067118536851040744,0.00035564930394106246
1785723600,2306.56289,2306.83289,2304.54905,2304.94905,129,30,-2.2447257383966246,1.3156328280737459,-3.5603585664703705,-129,0.17827072345034264,118.5,129,-2.2447257383966246,-0.00073440735770002874,0.00038671293721295627
1785723660,2304.94905,2305.27905,2303.22357,2303.48357,130,31,-4.2343096234309625,-0.53434798909448999,-3.6999616343364723,-130,0.18793495395949594,119.5,130,-4.2343096234309625,-0.00062839173941675597,0.00040793638905680573
1785723720,2303.48357,2303.87357,2301.96309,2302.29309,131,32,-6.2074688796680499,-2.425388285952343,-3.7820805937157069,-131,0.19497354449688797,120.5,131,-6.2074688796680499,-0.00055809084624680594,0.00042343337028581348
1785723780,2302.29309,2302.74309,2301.05091,2301.45091,132,20,-7.2427983539094649,-4.03119164193805,-3.2116067119714149,-132,0.19815424973834886,121.5,132,-7.2427983539094649,-0.00041768794562546674,0.0004304985365478615
1785723840,2301.45091,2301.72091,2300.70549,2300.96549,133,21,-7.3469387755102042,-5.1364406864621017,-2.2104980890481025,-133,0.19694114752291755,122.5,133,-7.3469387755102042,-0.00026838565427755867,0.00042795328391239269
1785723900,2300.96549,2301.29549,2300.45071,2300.78071,134,22,-7.4493927125506074,-5.9074246951582712,-1.5419680173923362,-134,0.19204820536216721,123.5,134,-7.4493927125506074,-0.00012530567703006312,0.00041735443218786198
1785723960,2300.78071,2301.17786,2300.38071,2300.78786,135,23,-6.4658634538152606,-6.0935709480439346,-0.372292505771326,0,0.18425701560057961,124.5,135,-6.4658634538152606,-2.6147288072486674e-05,0.00040042156602951566
1785724020,2300.78786,2301.29722,2300.52786,2300.84722,136,24,-5.4900398406374498,-5.8923939122417739,0.40235407160432413,0,0.17163521541507887,125.5,136,-5.4900398406374498,4.7210366959760108e-05,0.00037298264292202514
1785724080,2300.84722,2301.11722,2300.48525,2300.81525,100,25,-4.5217391304347823,-5.4355089849727767,0.91376985453799442,0,0.15791300990021584,126.5,100,-4.5217391304347823,-3.6882048529029987e-05,0.00034316751399360686
1785724140,2300.81525,2301.14525,2300.17236,2300.57236,101,26,-6.2952646239554317,-5.7220941979669959,-0.57317042598843582,-101,0.14442725135261639,125.65000000000001,101,-6.2952646239554317,-7.646163967223174e-05,0.00031389417230201001
1785724200,2300.57236,2300.96236,2299.78625,2300.04625,102,27,-8.1089743589743595,-6.5177209183027838,-1.5912534406715757,-102,0.13362323171983898,124.8,102,-8.1089743589743595,-0.00015868072274116685,0.00029047944518471961
1785724260,2300.04625,2300.49625,2298.89656,2299.22656,103,28,-9.9636950383219034,-7.6663789583091573,-2.2973160800127461,-103,0.12727921942837331,123.95,103,-9.9636950383219034,-0.0003153017920558554,0.00027678703274107381
1785724320,2299.22656,2299.49656,2297.76807,2298.16807,104,29,-11.860276198212835,-9.0643447049437178,-2.7959314932691175,-104,0.12620519456613866,123.09999999999999,104,-11.860276198212835,-0.00046203538170264125,0.00027457781746601905
1785724380,2298.16807,2298.49807,2296.72195,2296.98195,105,30,-13.799591002044989,-10.642760137310809,-3.1568308647341805,-105,0.12684174956671271,122.25,105,-13.799591002044989,-0.00046864166863347378,0.00027610523793343854
1785724440,2296.98195,2297.37195,2295.48653,2295.81653,106,31,-15.782537067545304,-12.356019114055641,-3.4265179534896628,-106,0.12937228716724566,121.40000000000001,106,-15.782537067545304,-0.0005118629361717808,0.00028175658959831091
1785724500,2295.81653,2296.26653,2294.43119,2294.83119,107,32,-16.781418498548319,-13.831152242219868,-2.950266256328451,-107,0.13093549410007718,120.55,107,-16.781418498548319,-0.0004568104368116721,0.00028528349856548095
1785724560,2294.83119,2295.10119,2293.90803,2294.16803,108,20,-16.758563074352548,-14.806955852930763,-1.951607221421785,-108,0.1312030525821363,119.7,108,-16.758563074352548,-0.00034159491756735605,0.00028594909105706675
1785724620,2294.16803,2294.49803,2293.59648,2293.92648,109,21,-16.735380732015145,-15.449764145958891,-1.2856165860562534,-109,0.13105854545242054,118.84999999999999,109,-16.735380732015145,-0.00016799758093632988,0.0002856642237558122
1785724680,2293.92648,2294.53555,2293.52648,2294.14555,110,22,-15.779661016949152,-15.559729769622312,-0.21993124732684066,0,0.13213275482773862,118,110,-15.779661016949152,2.7112307683374581e-05,0.00028797814251092004
1785724740,2294.14555,2295.24683,2293.88555,2294.79683,111,23,-13.854033290653009,-14.991164276632546,1.1371309859795371,111,0.13520164106000448,117.15000000000001,111,-13.854033290653009,0.00025012536708590716,0.00029458303082108679
